time,altitude,velocity,thrust
0,3.68241182045883,1.49997897935105,13.5149369380531
0.02,3.65403186954579,1.4979957368153,13.5089872104459
0.04,3.6255972995662,1.49416684890689,13.4975005467207
0.06,3.59709993009923,1.49014273083929,13.4854281925179
0.08,3.56860850874623,1.4858307167977,13.4724921503931
0.1,3.53965261342804,1.48285322580918,13.4635596774275
0.12,3.51081447087784,1.48326442147301,13.464793264419
0.14,3.48162853490708,1.48662169283268,13.474865078498
0.16,3.45257228259561,1.49403266929485,13.4970980078846
0.18,3.42305047945304,1.50089769783127,13.5176930934938
0.2,3.39352193426408,1.50645080514116,13.5343524154235
0.22,3.36218715120741,1.51028035723233,13.545841071697
0.24,3.32836024977592,1.50930236761386,13.5429071028416
0.26,3.29306847734024,1.50496237403456,13.5298871221037
0.28,3.25660361523543,1.49647713565301,13.504431406959
0.3,3.21990590704904,1.48359663660127,13.4657899098038
0.32,3.18511985895217,1.46673323984782,13.4151997195435
0.34,3.15330421793769,1.45043392730142,13.3663017819043
0.36,3.12449186754366,1.43525346032053,13.3207603809616
0.38,3.09803903130418,1.42363363616003,13.2859009084801
0.4,3.07308188296432,1.41457278800377,13.2587183640113
0.42,3.04749663785705,1.40998249374071,13.2449474812221
0.44,3.02154998926356,1.40993558661543,13.2448067598463
0.46,2.99410739735423,1.41308288526292,13.2542486557888
0.48,2.96582049406604,1.42032369805887,13.2759710941766
0.5,2.93711889190085,1.42921192302377,13.3026357690713
0.52,2.9093802794159,1.43879363196868,13.331380895906
0.54,2.8826022215674,1.44981552903119,13.3644465870936
0.56,2.85499775864205,1.45972180204007,13.3941654061202
0.58,2.82762278955357,1.46604088004402,13.4131226401321
0.6,2.79867119606458,1.46914901745243,13.4224470523573
0.62,2.76923869124282,1.47142750050276,13.4292825015083
0.64,2.73864360481318,1.47032747332812,13.4259824199844
0.66,2.70668990995172,1.46841286063868,13.420238581916
0.68,2.67365730258707,1.46680500992894,13.4154150297868
0.7,2.63873095209354,1.46902479731986,13.4220743919596
0.72,2.60309637129937,1.47210643624785,13.4313193087436
0.74,2.56652476398027,1.47821394596263,13.4496418378879
0.76,2.53093638086717,1.4864653997501,13.4743961992503
0.78,2.49653711152,1.49449060700879,13.4984718210264
0.8,2.46507470227552,1.49981118974331,13.5144335692299
0.82,2.43492226169576,1.50135184856836,13.5190555457051
0.84,2.40641280232207,1.50077309944,13.51731929832
0.86,2.37873424345637,1.49771940482124,13.5081582144637
0.88,2.35041052565599,1.49405555661395,13.4971666698418
0.9,2.32170399334826,1.48974981361919,13.4842494408576
0.92,2.29335857651808,1.48623895327181,13.4737168598154
0.94,2.26524041588124,1.48745032896531,13.4773509868959
0.96,2.23704167407226,1.49346971542381,13.4954091462714
0.98,2.20803004993166,1.50285496832312,13.5235649049694
1,2.1781996073435,1.51299733474096,13.5539920042229
1.02,2.14597143258798,1.52289615376742,13.5836884613023
1.04,2.11417824463971,1.52888953732345,13.6016686119703
1.06,2.08219361127391,1.53143848843303,13.6093154652991
1.08,2.05132684230602,1.5298615641583,13.6045846924749
1.1,2.02204944293963,1.52679886906244,13.5953966071873
1.12,1.99339660495731,1.52259027423457,13.5827708227037
1.14,1.96415920213226,1.5166094210772,13.5648282632316
1.16,1.93288867590528,1.5116772583848,13.5500317751544
1.18,1.89955173806425,1.50613314204503,13.5333994261351
1.2,1.86423194347512,1.50030059132158,13.5159017739647
1.22,1.82792285866534,1.49530094467188,13.5009028340156
1.24,1.79271161718494,1.49263405018425,13.4929021505528
1.26,1.76033557148407,1.49395316380818,13.4968594914246
1.28,1.73146043083538,1.49997540860769,13.5149262258231
1.3,1.70636145429385,1.50876734565739,13.5413020369722
1.32,1.68511840271246,1.52007165447162,13.5752149634149
1.34,1.6654917420973,1.52977061485199,13.604311844556
1.36,1.64655119462483,1.5356222001501,13.6218666004503
1.38,1.62636343949075,1.53542624583502,13.6212787375051
1.4,1.60344007235253,1.52946768898834,13.603403066965
1.42,1.57791604816039,1.51963817533342,13.5739145260003
1.44,1.5499500511566,1.50880088012726,13.5414026403818
1.46,1.51944789600623,1.49679286335014,13.5053785900504
1.48,1.48654443144226,1.48847467417868,13.480424022536
1.5,1.45302038007376,1.48118423957373,13.4585527187212
1.52,1.41867310970592,1.47342071926944,13.4352621578083
1.54,1.3854759957466,1.46738162436755,13.4171448731027
1.56,1.35335049577377,1.46190125716047,13.4007037714814
1.58,1.32214307258925,1.45753735534731,13.3876120660419
1.6,1.29155924503159,1.45725332347062,13.3867599704119
1.62,1.26147125440042,1.45707438498268,13.386223154948
1.64,1.23181630520341,1.45753906615095,13.3876171984529
1.66,1.20275478149611,1.45908379714629,13.3922513914389
1.68,1.17210161457308,1.46332267252781,13.4049680175834
1.7,1.13984778903955,1.46655505768462,13.4146651730539
1.72,1.10627129458366,1.47236554624916,13.4320966387475
1.74,1.07119829477094,1.48105847793608,13.4581754338082
1.76,1.03684464167771,1.48936581218322,13.4830974365497
1.78,1.00268130124228,1.49497669664494,13.4999300899348
1.8,0.968490578141572,1.50026592518099,13.515797775543
1.82,0.936049187613019,1.50319460634841,13.5245838190452
1.84,0.904875861055258,1.50379998840311,13.5263999652093
1.86,0.875194195623142,1.50311195445206,13.5243358633562
1.88,0.848123706645307,1.50035267851939,13.5160580355582
1.9,0.822807833949869,1.49635477467893,13.5040643240368
1.92,0.799162499376979,1.49223846389292,13.4917153916788
1.94,0.776965734803996,1.48756740743218,13.4777022222966
1.96,0.754977031119849,1.4813852117166,13.4591556351498
1.98,0.732428884944938,1.47630264118953,13.4439079235686
2,0.707854024114689,1.47293547305774,13.4338064191732
2.02,0.681963792543113,1.47073144779403,13.4271943433821
2.04,0.653925770077874,1.46762456183708,13.4178736855112
2.06,0.624873136027694,1.46729340173337,13.4168802052001
2.08,0.596539356464527,1.46645008436004,13.4143502530801
2.1,0.568211150088154,1.46465505049223,13.4089651514767
2.12,0.538274190620957,1.46125117301994,13.3987535190598
2.14,0.506629849792162,1.45532579097089,13.3809773729127
2.16,0.473043417188113,1.44719855907739,13.3565956772322
2.18,0.438717574165532,1.43769571027186,13.3280871308156
2.2,0.404105003888944,1.42457550820811,13.2887265246243
2.22,0.369026696987293,1.40740118632936,13.2372035589881
2.24,0.335837504902972,1.38625670187139,13.1737701056142
2.26,0.304690636910368,1.36199504566656,13.1009851369997
2.28,0.276749780180332,1.33290717878722,13.0137215363617
2.3,0.251617548098868,1.30488506822203,12.9296552046661
2.32,0.228465258771811,1.27734760989131,12.8470428296739
2.34,0.207949909255972,1.24996884065207,12.7649065219562
2.36,0.189598716646238,1.21775531631333,12.66826594894
2.38,0.170907640231175,1.17846316765887,12.5503895029766
2.4,0.15211274772247,1.12843046760731,12.4002914028219
2.42,0.134348412903607,1.06642733702275,12.2142820110683
2.44,0.117817253611181,0.990914322476768,11.9877429674303
2.46,0.102665064333848,0.902575583963034,11.7227267518891
2.48,0.0878304348590719,0.801412890298976,11.4192386708969
2.5,0.0745202994967982,0.688165369698709,11.0794961090961
2.52,0.0620169768894118,0.563718441815407,10.7061553254462
2.54,0.049246556901412,0.427325799988179,10.2969773999645
2.5401121615795,0.0456196876147697,0.427627189393118,10.2978815681794
