time,altitude,velocity,thrust
0,4.84947215015347,0.710859772285569,11.1475793168567
0.02,4.83103551074228,0.754443523946568,11.2783305718397
0.04,4.81049296785305,0.79586222717046,11.4025866815114
0.06,4.78982357737647,0.832497985284312,11.5124939558529
0.08,4.76889475946311,0.867220234808395,11.6166607044252
0.1,4.74869176485907,0.898451179934393,11.7103535398032
0.12,4.73051029913037,0.92665903786756,11.7949771136027
0.14,4.71432945998948,0.954774919461938,11.8793247583858
0.16,4.70056183197372,0.980117584309633,11.9553527529289
0.18,4.68851924309009,1.00305376421281,12.0241612926384
0.2,4.67767586172368,1.02341770514224,12.0852531154267
0.22,4.66624102506465,1.04228372231581,12.1418511669474
0.24,4.65393426070301,1.05999696672932,12.194990900188
0.26,4.63950706218229,1.07559767546465,12.241793026394
0.28,4.62256138190286,1.09039336092666,12.28618008278
0.3,4.60428558786277,1.10449120423859,12.3284736127158
0.32,4.58319531886875,1.12298005115566,12.383940153467
0.34,4.56164835250471,1.14096083064256,12.4378824919277
0.36,4.53821973308171,1.16007595139626,12.4952278541888
0.38,4.51407075305322,1.1762641583703,12.5437924751109
0.4,4.48856616983085,1.19134205497252,12.5890261649176
0.42,4.46144011119534,1.20522392954494,12.6306717886348
0.44,4.43312941717722,1.21531676357708,12.6609502907312
0.46,4.40391446377179,1.22529835821438,12.6908950746431
0.48,4.37446961699421,1.2366062947523,12.7248188842569
0.5,4.34572433687915,1.2499362602761,12.7648087808283
0.52,4.31883358560195,1.26310453399915,12.8043136019975
0.54,4.29305838490998,1.27392157023494,12.8367647107048
0.56,4.26820279089313,1.28379871958663,12.8663961587599
0.58,4.24341301716051,1.28954210571845,12.8836263171553
0.6,4.21835397015253,1.2917306706891,12.8901920120673
0.62,4.19230829056992,1.29061979827831,12.8868593948349
0.64,4.16505549253282,1.29034262983623,12.8860278895087
0.66,4.13779948078351,1.29193535265667,12.89080605797
0.68,4.1097732654807,1.30021201850201,12.915636055506
0.7,4.08261170910648,1.31141690422552,12.9492507126765
0.72,4.05536671331221,1.32688955408128,12.9956686622438
0.74,4.0284925677876,1.34595184843845,13.0528555453154
0.76,4.00160642417567,1.36491944384221,13.1097583315266
0.78,3.97474784472169,1.38127689698085,13.1588306909426
0.8,3.94736981699598,1.39649678384148,13.2044903515244
0.82,3.92001839005487,1.40904068033024,13.2421220409907
0.84,3.89311982482484,1.41932107831407,13.2729632349422
0.86,3.86620928757023,1.42448668167254,13.2884600450176
0.88,3.83922626985344,1.42814216460708,13.2994264938213
0.9,3.81213313431594,1.43150899915783,13.3095269974735
0.92,3.78462511937095,1.43616505520151,13.3234951656045
0.94,3.75674913516158,1.44079942858106,13.3373982857432
0.96,3.72801186021457,1.44602919918103,13.3530875975431
0.98,3.70068441794974,1.44894097341371,13.3618229202411
1,3.67416022795885,1.45437580339112,13.3781274101734
1.02,3.64934589179264,1.45811359015029,13.3893407704509
1.04,3.62458929077261,1.45958747162758,13.3937624148827
1.06,3.59899235191815,1.4584968510277,13.3904905530831
1.08,3.57174749143762,1.45214162807833,13.371424884235
1.1,3.54284112300488,1.44361514433517,13.3458454330055
1.12,3.51215832178737,1.43532110783677,13.3209633235103
1.14,3.4802387419791,1.42839630663152,13.3001889198946
1.16,3.44723337310593,1.42925628992898,13.302768869787
1.18,3.41259864736364,1.43394806937251,13.3168442081175
1.2,3.37608927681788,1.44492705066076,13.3497811519823
1.22,3.33915104397532,1.45875840692996,13.3912752207899
1.24,3.30262645871758,1.47188463340699,13.430653900221
1.26,3.26810466380924,1.48166998958,13.46000996874
1.28,3.23533175389635,1.48563626479165,13.4719087943749
1.3,3.20515761708854,1.48230010184383,13.4619003055315
1.32,3.1770260392366,1.47454341771356,13.4386302531407
1.34,3.15081345234672,1.46562734048649,13.4118820214595
1.36,3.12409982290169,1.45621322737001,13.38363968211
1.38,3.09573421253163,1.44863783749768,13.360913512493
1.4,3.06639356803766,1.44304361876896,13.3441308563069
1.42,3.03590514066454,1.44173935767031,13.3402180730109
1.44,3.00625626490667,1.4452575278965,13.3507725836895
1.46,2.97715129110426,1.45038906520045,13.3661671956013
1.48,2.94965377389578,1.45851236551025,13.3905370965308
1.5,2.92318368804107,1.46544120781255,13.4113236234377
1.52,2.89672444420785,1.46936371208769,13.4230911362631
1.54,2.8701088845431,1.47054472353327,13.4266341705998
1.56,2.84301509156862,1.46970554046641,13.4241166213992
1.58,2.8156785286517,1.46910146199462,13.4223043859839
1.6,2.78829899904936,1.4692033903132,13.4226101709396
1.62,2.76162557049968,1.47061455687689,13.4268436706307
1.64,2.73437354363703,1.47343358156423,13.4353007446927
1.66,2.70746704406879,1.47902883968376,13.4520865190513
1.68,2.68001827367666,1.48605391130929,13.4731617339279
1.7,2.65101488300462,1.49261414120602,13.4928424236181
1.72,2.62156187132037,1.4996710800573,13.5140132401719
1.74,2.59118704716756,1.50502433203785,13.5300729961136
1.76,2.56148083123157,1.5100992937426,13.5452978812278
1.78,2.53111226849524,1.51716079322588,13.5664823796777
1.8,2.50099024769176,1.52497943698636,13.5899383109591
1.82,2.47106369686894,1.53469173006832,13.619075190205
1.84,2.44077424276928,1.542629977678,13.642889933034
1.86,2.41131932141831,1.54662738570171,13.6548821571051
1.88,2.38051251595791,1.5475954546614,13.6577863639842
1.9,2.34842215917689,1.54445219636506,13.6483565890952
1.92,2.31504053311531,1.53900537895528,13.6320161368658
1.94,2.28169003426911,1.53266727108763,13.6130018132629
1.96,2.24963214274622,1.52825904560181,13.5997771368054
1.98,2.21968853058792,1.52702760667782,13.5960828200335
2,2.19325139708372,1.52775727157514,13.5982718147254
2.02,2.1685097335714,1.52784564592277,13.5985369377683
2.04,2.1450912904598,1.52537170673032,13.591115120191
2.06,2.12123246413285,1.51997084820565,13.574912544617
2.08,2.09576867246544,1.51074760830969,13.5472428249291
2.1,2.06766988079715,1.50106703577921,13.5182011073376
2.12,2.03682583250216,1.49212859267452,13.4913857780236
2.14,2.00494312328676,1.48741794264905,13.4772538279471
2.16,1.97095148610382,1.48321907616158,13.4646572284847
2.18,1.93882948830825,1.48271881651622,13.4631564495487
2.2,1.90766395164778,1.48454033874558,13.4686210162368
2.22,1.8786153637181,1.48602221686225,13.4730666505867
2.24,1.85060186672502,1.48935157280015,13.4830547184005
2.26,1.82246561453699,1.49428897307922,13.4978669192376
2.28,1.79331298690674,1.49914922184899,13.512447665547
2.3,1.7615761276505,1.50356332789275,13.5256899836783
2.32,1.72815615900843,1.50668613741709,13.5350584122513
2.34,1.69221178133606,1.50928553506396,13.5428566051919
2.36,1.6551697391454,1.51025885231018,13.5457765569305
2.38,1.61793948700388,1.51048247649446,13.5464474294834
2.4,1.5796220929189,1.50602056756079,13.5330617026824
2.42,1.5420466237987,1.49875987674145,13.5112796302244
2.44,1.50618487799045,1.48541170988205,13.4712351296462
2.46,1.47384824537014,1.47191010181066,13.430730305432
2.48,1.44275033910774,1.45672073602145,13.3851622080644
2.5,1.41338172193389,1.44688434463561,13.3556530339068
2.52,1.38398093262749,1.44115148386587,13.3384544515976
2.54,1.35428595726894,1.43971934829504,13.3341580448851
2.56,1.32347607895157,1.44004027555074,13.3351208266522
2.58,1.29204160800155,1.44043112425143,13.3362933727543
2.6,1.26089915838137,1.44137175770198,13.3391152731059
2.62,1.23048932052827,1.44122054658203,13.3386616397461
2.64,1.20080031225234,1.44404065242469,13.3471219572741
2.66,1.17258862712546,1.45004704171746,13.3651411251524
2.68,1.14592442210125,1.46083160506131,13.3974948151839
2.7,1.12138057429776,1.47701824668941,13.4460547400682
2.72,1.09682848897754,1.49418348813653,13.4975504644096
2.74,1.07187253958062,1.51425847437092,13.5577754231128
2.76,1.04576448923922,1.5279664703099,13.5988994109297
2.78,1.01983107344762,1.53302376244086,13.6140712873226
2.8,0.992347045090807,1.52960181477909,13.6038054443373
2.82,0.964029572256227,1.51886752828333,13.57160258485
2.84,0.934689603583807,1.50429184702889,13.5278755410867
2.86,0.905185013551558,1.49272457227532,13.493173716826
2.88,0.87544725270931,1.48732868144795,13.4769860443439
2.9,0.844865507877106,1.4855767551318,13.4717302653954
2.92,0.813899989323617,1.4890653165799,13.4821959497397
2.94,0.782359725428179,1.49367976618761,13.4960392985628
2.96,0.750414775297693,1.49951960226005,13.5135588067802
2.98,0.718791665240487,1.50179161467245,13.5203748440173
3,0.687432904007132,1.50070076565478,13.5171022969643
3.02,0.657260926052462,1.49373958906862,13.4962187672059
3.04,0.627204162927467,1.48031227850332,13.4559368355099
3.06,0.597246215474374,1.46734446915419,13.4170334074626
3.08,0.566094822112718,1.45499830743887,13.3799949223166
3.1,0.534527634351453,1.44482104202799,13.349463126084
3.12,0.502484270253282,1.44208897657329,13.3412669297199
3.14,0.470394981435675,1.4419228843514,13.3407686530542
3.16,0.437926360972479,1.44510030757911,13.3503009227373
3.18,0.406107558602016,1.44656840505894,13.3547052151768
3.2,0.375561142978944,1.44483421022877,13.3495026306863
3.22,0.346156818248866,1.43629758192571,13.3238927457771
3.24,0.317023220292823,1.41962720106037,13.2738816031811
3.26,0.288363265428562,1.39489144207152,13.1996743262146
3.28,0.260182397300339,1.36538190733756,13.1111457220127
3.3,0.233807723902085,1.33322700045452,13.0146810013636
3.32,0.208275147403517,1.30236116300242,12.9220834890073
3.34,0.185196743950006,1.27243476891032,12.832304306731
3.36,0.164586237568434,1.24241387034271,12.7422416110281
3.38,0.145564462353189,1.20985305252803,12.6445591575841
3.4,0.128044099659674,1.16868488346689,12.5210546504007
3.42,0.111238333618607,1.11472449873365,12.3591734962009
3.44,0.0951351780307077,1.04636664265423,12.1540999279627
3.46,0.079982929765326,0.959720379204928,11.8941611376148
3.48,0.0659326022907912,0.856503345132712,11.5845100353981
3.5,0.0534729215064845,0.73593939663347,11.2228181899004
3.52,0.0430508975328555,0.601187952510878,10.8185638575326
3.54,0.0357312853804153,0.454922649949058,10.3797679498472
3.54407922112846,0.0365887718634183,0.416309989877557,10.2639299696327
