time,altitude,velocity,thrust
0,3.27966509192686,1.3121738254867,12.9515214764601
0.02,3.25336924465941,1.32626177970854,12.9937853391256
0.04,3.2270716868798,1.34214996445248,13.0414498933574
0.06,3.20149591639206,1.35782733417239,13.0884820025172
0.08,3.1748405491232,1.37364938345594,13.1359481503678
0.1,3.1466065401167,1.3883166272668,13.1799498818004
0.12,3.11653732951524,1.40205090543052,13.2211527162916
0.14,3.08476423004034,1.41278257090555,13.2533477127166
0.16,3.05149190960424,1.42351055869615,13.2855316760885
0.18,3.01802107809414,1.4343466190482,13.3180398571446
0.2,2.98386770224927,1.44566353989559,13.3519906196868
0.22,2.95033713485198,1.45573014423293,13.3821904326988
0.24,2.91789472930344,1.46353016260873,13.4055904878262
0.26,2.88725424393641,1.46841882453716,13.4202564736115
0.28,2.85830663201661,1.46931618947908,13.4229485684372
0.3,2.82870353449845,1.46648556185448,13.4144566855634
0.32,2.80002325615594,1.46141391260509,13.3992417378153
0.34,2.77224124904688,1.45155446370487,13.3696633911146
0.36,2.7442750290413,1.44332427288382,13.3449728186514
0.38,2.71804618312986,1.43682635686363,13.3254790705909
0.4,2.69344585056339,1.43508700360666,13.32026101082
0.42,2.66976092627074,1.43663723895541,13.3249117168662
0.44,2.64719968030555,1.44193345887947,13.3408003766384
0.46,2.62527035206443,1.44541637400422,13.3512491220127
0.48,2.60305047542271,1.44704302390399,13.356129071712
0.5,2.57994907416344,1.44847065495608,13.3604119648682
0.52,2.55480004080487,1.44988312869474,13.3646493860842
0.54,2.52650016852602,1.45322915523372,13.3746874657012
0.56,2.49626824941574,1.45708015872367,13.386240476171
0.58,2.46444256566029,1.46029107588533,13.395873227656
0.6,2.43206689298742,1.46215497099482,13.4014649129845
0.62,2.39904283368058,1.46255475505747,13.4026642651724
0.64,2.36635328183398,1.46183789779151,13.4005136933745
0.66,2.33525222836581,1.4582650001458,13.3897950004374
0.68,2.30437735134177,1.45528689685269,13.3808606905581
0.7,2.27455142258568,1.45277470869704,13.3733241260911
0.72,2.24543325588091,1.45188864487857,13.3706659346357
0.74,2.21698245003715,1.45023248384381,13.3656974515314
0.76,2.18947711214518,1.44949522226989,13.3634856668097
0.78,2.16286729155086,1.44829871755125,13.3598961526537
0.8,2.13553454269379,1.44632684537554,13.3539805361266
0.82,2.10868500111567,1.44767783354846,13.3580335006454
0.84,2.08140829982938,1.44957291209312,13.3637187362794
0.86,2.05311988680007,1.4535987748598,13.3757963245794
0.88,2.02407713756031,1.45918461024229,13.3925538307269
0.9,1.99361982181982,1.46258787645283,13.4027636293585
0.92,1.96273813031659,1.46420544073748,13.4076163222124
0.94,1.93204531390845,1.46336785209337,13.4051035562801
0.96,1.90074869112496,1.45971344606741,13.3941403382022
0.98,1.86836023225301,1.45392617746318,13.3767785323895
1,1.83376466037806,1.44825268454255,13.3597580536277
1.02,1.79807185175627,1.44472914934033,13.349187448021
1.04,1.76064368176975,1.44653534516269,13.3546060354881
1.06,1.72335983609907,1.45201680198211,13.3710504059463
1.08,1.68782404798871,1.46159410832791,13.3997823249837
1.1,1.65528204951574,1.47162813048618,13.4298843914586
1.12,1.62416801104607,1.47828959479476,13.4498687843843
1.14,1.59639517170737,1.47946081430775,13.4533824429232
1.16,1.57043848218083,1.4744396819679,13.4383190459037
1.18,1.54579412891002,1.46468471802446,13.4090541540734
1.2,1.52033589386384,1.45296757069814,13.3739027120944
1.22,1.49254879129456,1.44091339654783,13.3377401896435
1.24,1.46237759124872,1.42843857535611,13.3003157260683
1.26,1.43160199265572,1.41881811947395,13.2714543584218
1.28,1.40108649648133,1.41175142744156,13.2502542823247
1.3,1.37000004885901,1.40662437622548,13.2348731286764
1.32,1.33896121638797,1.40323243369448,13.2246973010834
1.34,1.30856276029925,1.40011294157089,13.2153388247127
1.36,1.27798746516158,1.39910424488899,13.212312734667
1.38,1.24813436389894,1.39861877103899,13.210856313117
1.4,1.21935966916638,1.40000273481827,13.2150082044548
1.42,1.19203003164215,1.40344702933948,13.2253410880184
1.44,1.16529157817882,1.41080917375842,13.2474275212753
1.46,1.13981162185581,1.41877239161771,13.2713171748531
1.48,1.11500272121502,1.42855853222075,13.3006755966623
1.5,1.0911078614875,1.43914942830176,13.3324482849053
1.52,1.06663113531453,1.44827666574731,13.3598299972419
1.54,1.04186321150522,1.45860418809845,13.3908125642954
1.56,1.01464795692634,1.46705359928844,13.4161607978653
1.58,0.985884769930022,1.47561935500083,13.4418580650025
1.6,0.954081630407433,1.48373190325006,13.4661957097502
1.62,0.920144182151435,1.48742195773275,13.4772658731983
1.64,0.884093134586654,1.48717097253587,13.4765129176076
1.66,0.84839811621099,1.48140821972119,13.4592246591636
1.68,0.812627633470451,1.47265621481193,13.4329686444358
1.7,0.778252343335724,1.4638583463917,13.4065750391751
1.72,0.744977337327605,1.45737402411016,13.3871220723305
1.74,0.713226536439984,1.45607397387104,13.3832219216131
1.76,0.681503954558318,1.45969394931563,13.3940818479469
1.78,0.650173598321323,1.46550262501356,13.4115078750407
1.8,0.618936167556864,1.47453072873854,13.4385921862156
1.82,0.58890360139564,1.48429882413995,13.4678964724198
1.84,0.560041607049187,1.48701566428549,13.4760469928565
1.86,0.53435221393796,1.48435334343563,13.4680600303069
1.88,0.511354277739129,1.47426586193472,13.4377975858042
1.9,0.491385550681025,1.45957071594433,13.393712147833
1.92,0.470409445402014,1.44476762418286,13.3493028725486
1.94,0.44785099756814,1.42740480862933,13.297214425888
1.96,0.421259071483374,1.41291353095223,13.2537405928567
1.98,0.391388280950554,1.39910016256187,13.2123004876856
2,0.357510166327177,1.38678516771407,13.1753555031422
2.02,0.321268421599146,1.37765973313958,13.1479791994187
2.04,0.284429040262935,1.36699101486261,13.1159730445878
2.06,0.249218983321603,1.35598117187478,13.0829435156243
2.08,0.218109018858244,1.33742447692148,13.0272734307644
2.1,0.19190924891693,1.30681248857194,12.9354374657158
2.12,0.169701342092811,1.26410791425612,12.8073237427683
2.14,0.151620237791966,1.21180114524375,12.6504034357313
2.16,0.135251689388584,1.14810670075606,12.4593201022682
2.18,0.118055593852214,1.07653283709552,12.2445985112866
2.2,0.100321836761029,0.996986756694291,12.0059602700829
2.22,0.0823966618284729,0.909658166497106,11.7439744994913
2.24,0.0646938166911135,0.814726865639453,11.4591805969184
2.26,0.0480364306541391,0.707045742639788,11.1361372279194
2.28,0.03307597409502,0.589388391768571,10.7831651753057
2.3,0.0207177377742154,0.45929796592771,10.3928938977831
2.30158906068262,0.0176160648100596,0.451613174642372,10.3698395239271
