time,altitude,velocity,thrust
0,3.11829105608252,0.619813580841667,10.874440742525
0.02,3.1056280460452,0.671388552365076,11.0291656570952
0.04,3.09344474700139,0.718343958090196,11.1700318742706
0.06,3.08012107161088,0.757301799809186,11.2869053994276
0.08,3.06635891423818,0.788592009013919,11.3807760270418
0.1,3.05296094458508,0.813017740153697,11.4540532204611
0.12,3.03801902282765,0.83278829362901,11.513364880887
0.14,3.02295857734436,0.851680067519155,11.5700402025575
0.16,3.00616920387548,0.872204625152817,11.6316138754585
0.18,2.9879797032151,0.897598373094479,11.7077951192834
0.2,2.96787961385251,0.926089220453708,11.7932676613611
0.22,2.94774757163808,0.958742308604413,11.8912269258132
0.24,2.92612815667639,0.992145436476658,11.99143630943
0.26,2.90509383571855,1.02588625919214,12.0926587775764
0.28,2.88494443636542,1.05855864772353,12.1906759431706
0.3,2.86518595159032,1.08748433142744,12.2774529942823
0.32,2.84582144342433,1.11201592474203,12.3510477742261
0.34,2.82665656588795,1.13201943814451,12.4110583144335
0.36,2.8083084403676,1.14972106243318,12.4641631872995
0.38,2.78952549539203,1.16547374103458,12.5114212231037
0.4,2.76844033620705,1.1789923024305,12.5519769072915
0.42,2.74705183297707,1.19155330886906,12.5896599266072
0.44,2.72419539295582,1.20203762139517,12.6211128641855
0.46,2.70115980762462,1.21071755545388,12.6471526663617
0.48,2.67912547274407,1.21736683081539,12.6671004924462
0.5,2.6571194277249,1.22409294018553,12.6872788205566
0.52,2.63469093789793,1.23174620763306,12.7102386228992
0.54,2.61099634370358,1.24296836754389,12.7439051026317
0.56,2.58574990444197,1.25737740334906,12.7871322100472
0.58,2.55810400151753,1.2739872242223,12.8369616726669
0.6,2.52965750442275,1.29189477768743,12.8906843330623
0.62,2.49953243470389,1.3090587261399,12.9421761784197
0.64,2.46696421330873,1.32395058884367,12.986851766531
0.66,2.43447389931239,1.33436650972632,13.018099529179
0.68,2.40187813876191,1.34069921586666,13.0370976476
0.7,2.37124603400642,1.3444746789259,13.0484240367777
0.72,2.34214103705141,1.34763688033932,13.057910641018
0.74,2.31353537056031,1.35335768094709,13.0750730428413
0.76,2.2863905160728,1.36142180120085,13.0992654036026
0.78,2.25826122571444,1.37335390716444,13.1350617214933
0.8,2.23032697939642,1.38857402667184,13.1807220800155
0.82,2.20154822235931,1.4038242130708,13.2264726392124
0.84,2.173687719473,1.41631956019176,13.2639586805753
0.86,2.14541085291767,1.42555877791522,13.2916763337457
0.88,2.11770347659982,1.43041713842542,13.3062514152763
0.9,2.09003955351001,1.43147446955604,13.3094234086681
0.92,2.0634240332112,1.43120890354871,13.3086267106461
0.94,2.03799770442943,1.43225310696522,13.3117593208957
0.96,2.01197666603277,1.43728207755828,13.3268462326748
0.98,1.98627779091911,1.44473806161126,13.3492141848338
1,1.96110224035224,1.45328917981655,13.3748675394496
1.02,1.9365804165022,1.45902699551615,13.3920809865484
1.04,1.91307611313658,1.46200218778974,13.4010065633692
1.06,1.88835547959457,1.46298196946328,13.4039459083898
1.08,1.86232475819969,1.46150503339908,13.3995151001972
1.1,1.83467093436461,1.46049546209112,13.3964863862734
1.12,1.80479258455704,1.4616862466231,13.4000587398693
1.14,1.77390419476824,1.4643882746724,13.4081648240172
1.16,1.74172619464889,1.46867739142087,13.4210321742626
1.18,1.70791808434808,1.47441500419548,13.4382450125865
1.2,1.67264385465208,1.47788530674279,13.4486559202284
1.22,1.63643309424822,1.47895214630103,13.4518564389031
1.24,1.60020196246627,1.47522304966013,13.4406691489804
1.26,1.56532077306328,1.46960476307792,13.4238142892338
1.28,1.53325079780074,1.46287369214632,13.4036210764389
1.3,1.50339395172266,1.45759171182126,13.3877751354638
1.32,1.47639801200137,1.45345861426178,13.3753758427853
1.34,1.4513119548242,1.45164094903389,13.3699228471017
1.36,1.42729460423623,1.45187507780889,13.3706252334267
1.38,1.40346921740553,1.45522103665605,13.3806631099682
1.4,1.37826622973341,1.46223607431623,13.4017082229487
1.42,1.35208488249788,1.47042975279415,13.4262892583825
1.44,1.32388381460563,1.47889875628402,13.4516962688521
1.46,1.29587382373212,1.48398585366209,13.4669575609863
1.48,1.26763188954359,1.48699875076661,13.4759962522998
1.5,1.2398424559284,1.48843000866493,13.4802900259948
1.52,1.21290111038228,1.48721740007318,13.4766522002196
1.54,1.18564225861205,1.48662424301827,13.4748727290548
1.56,1.15758711398339,1.48420244342926,13.4676073302878
1.58,1.12820450771849,1.48168765079525,13.4600629523858
1.6,1.09716685464484,1.47922602648,13.45267807944
1.62,1.06484382081047,1.47768857134879,13.4480657140464
1.64,1.03216722339064,1.47529475497468,13.4408842649241
1.66,0.999618328868762,1.4748388266204,13.4395164798612
1.68,0.967884645280837,1.4760780685389,13.4432342056167
1.7,0.937544065671526,1.47566909284688,13.4420072785406
1.72,0.908769829670511,1.47780450661706,13.4484135198512
1.74,0.880701397309518,1.48060577893996,13.4568173368199
1.76,0.85306855869547,1.48310224652004,13.4643067395601
1.78,0.825071531950681,1.48406921334648,13.4672076400394
1.8,0.794625291437148,1.48480201805074,13.4694060541522
1.82,0.761655360154098,1.48363342895934,13.465900286878
1.84,0.728007115475751,1.47896428149118,13.4518928444735
1.86,0.693989855763365,1.47404766350034,13.437142990501
1.88,0.661423743689221,1.46867379598924,13.4210213879677
1.9,0.632309934643965,1.46305665717778,13.4041699715333
1.92,0.606667161433115,1.46083822811116,13.3975146843335
1.94,0.583169048035829,1.46407496120276,13.4072248836083
1.96,0.561508828822611,1.46660410607113,13.4148123182134
1.98,0.53890360432943,1.46917458456016,13.4225237536805
2,0.513628127206388,1.47224457351014,13.4317337205304
2.02,0.485401792731631,1.46970483030408,13.4241144909122
2.04,0.454306708050835,1.46155934598758,13.3996780379627
2.06,0.420954146793002,1.44850857236667,13.3605257171
2.08,0.387316060789859,1.42833860668254,13.3000158200476
2.1,0.355177098854651,1.39855010864243,13.2106503259273
2.12,0.325373905942046,1.36353247548912,13.1055974264674
2.14,0.2964416933232,1.32530458076674,12.9909137423002
2.16,0.268688696050585,1.2856270210469,12.8718810631407
2.18,0.241799128474654,1.24934367472997,12.7630310241899
2.2,0.216140082029178,1.21642127169533,12.664263815086
2.22,0.192633460138786,1.18511726645741,12.5703517993722
2.24,0.171904927338566,1.15060841859246,12.4668252557774
2.26,0.153423020370667,1.11367044803935,12.3560113441181
2.28,0.137198823443784,1.06463890044874,12.2089167013462
2.3,0.122443889238731,1.00303164095232,12.024094922857
2.32,0.108229997653836,0.93041680756196,11.8062504226859
2.34,0.0956775294557895,0.847156577226278,11.5564697316788
2.36,0.0844054265127964,0.753342450230048,11.2750273506901
2.38,0.0747190500415168,0.648670824819696,10.9610124744591
2.4,0.0668947574346113,0.532962070765052,10.6138862122952
2.41641250489446,0.0615697311730725,0.429103566944194,10.3023107008326
